SiO2 Rho=2.2, Sig=0.nm, P=1., 11.5deg
 Photon Energy (eV), Reflectivity
   30.0000  0.559907
   30.1400  0.559332
   30.2800  0.558759
   30.4200  0.558200
   30.5600  0.557641
   30.7000  0.557081
   30.8400  0.556529
   30.9800  0.555981
   31.1200  0.555432
   31.2600  0.554885
   31.4000  0.554354
   31.5400  0.553824
   31.6800  0.553292
   31.8200  0.552775
   31.9600  0.552271
   32.1000  0.551766
   32.2400  0.551260
   32.3800  0.550787
   32.5200  0.550319
   32.6600  0.549850
   32.8000  0.549384
   32.9400  0.548954
   33.0800  0.548521
   33.2200  0.548088
   33.3600  0.547669
   33.5000  0.547280
   33.6400  0.546890
   33.7800  0.546498
   33.9200  0.546133
   34.0600  0.545795
   34.2000  0.545455
   34.3400  0.545114
   34.4800  0.544814
   34.6200  0.544543
   34.7600  0.544270
   34.9000  0.543995
   35.0400  0.543790
   35.1800  0.543630
   35.3200  0.543467
   35.4600  0.543301
   35.6000  0.543249
   35.7400  0.543285
   35.8800  0.543316
   36.0200  0.543343
   36.1600  0.543517
   36.3000  0.543867
   36.4400  0.544217
   36.5800  0.544566
   36.7200  0.544816
   36.8600  0.544825
   37.0000  0.544836
   37.1400  0.544849
   37.2800  0.544858
   37.4200  0.544744
   37.5600  0.544632
   37.7000  0.544522
   37.8400  0.544414
   37.9800  0.544250
   38.1200  0.544068
   38.2600  0.543889
   38.4000  0.543711
   38.5400  0.543516
   38.6800  0.543290
   38.8200  0.543066
   38.9600  0.542844
   39.1000  0.542623
   39.2400  0.542373
   39.3800  0.542123
   39.5200  0.541874
   39.6600  0.541627
   39.8000  0.541369
   39.9400  0.541091
   40.0800  0.540816
   40.2200  0.540543
   40.3600  0.540271
   40.5000  0.539970
   40.6400  0.539665
   40.7800  0.539360
   40.9200  0.539058
   41.0600  0.538754
   41.2000  0.538430
   41.3400  0.538108
   41.4800  0.537787
   41.6200  0.537468
   41.7600  0.537142
   41.9000  0.536805
   42.0400  0.536469
   42.1800  0.536136
   42.3200  0.535803
   42.4600  0.535462
   42.6000  0.535116
   42.7400  0.534772
   42.8800  0.534428
   43.0200  0.534086
   43.1600  0.533736
   43.3000  0.533384
   43.4400  0.533033
   43.5800  0.532682
   43.7200  0.532334
   43.8600  0.531980
   44.0000  0.531624
   44.1400  0.531270
   44.2800  0.530917
   44.4200  0.530565
   44.5600  0.530211
   44.7000  0.529856
   44.8400  0.529503
   44.9800  0.529150
   45.1200  0.528799
   45.2600  0.528449
   45.4000  0.528101
   45.5400  0.527753
   45.6800  0.527407
   45.8200  0.527061
   45.9600  0.526719
   46.1000  0.526384
   46.2400  0.526050
   46.3800  0.525717
   46.5200  0.525385
   46.6600  0.525053
   46.8000  0.524741
   46.9400  0.524429
   47.0800  0.524118
   47.2200  0.523808
   47.3600  0.523498
   47.5000  0.523217
   47.6400  0.522955
   47.7800  0.522694
   47.9200  0.522433
   48.0600  0.522172
   48.2000  0.521934
   48.3400  0.521841
   48.4800  0.521748
   48.6200  0.521655
   48.7600  0.521563
   48.9000  0.521472
   49.0400  0.521387
   49.1800  0.521309
   49.3200  0.521232
   49.4600  0.521157
   49.6000  0.521083
   49.7400  0.521010
   49.8800  0.520818
   50.0200  0.520615
   50.1600  0.520414
   50.3000  0.520213
   50.4400  0.520015
   50.5800  0.519806
   50.7200  0.519541
   50.8600  0.519277
   51.0000  0.519015
   51.1400  0.518754
   51.2800  0.518494
   51.4200  0.518218
   51.5600  0.517905
   51.7000  0.517594
   51.8400  0.517283
   51.9800  0.516974
   52.1200  0.516666
   52.2600  0.516341
   52.4000  0.515988
   52.5400  0.515636
   52.6800  0.515285
   52.8200  0.514935
   52.9600  0.514585
   53.1000  0.514223
   53.2400  0.513836
   53.3800  0.513449
   53.5200  0.513063
   53.6600  0.512679
   53.8000  0.512294
   53.9400  0.511905
   54.0800  0.511494
   54.2200  0.511084
   54.3600  0.510675
   54.5000  0.510266
   54.6400  0.509858
   54.7800  0.509451
   54.9200  0.509016
   55.0600  0.508582
   55.2000  0.508148
   55.3400  0.507715
   55.4800  0.507282
   55.6200  0.506849
   55.7600  0.506400
   55.9000  0.505942
   56.0400  0.505484
   56.1800  0.505026
   56.3200  0.504570
   56.4600  0.504113
   56.6000  0.503650
   56.7400  0.503168
   56.8800  0.502686
   57.0200  0.502204
   57.1600  0.501723
   57.3000  0.501242
   57.4400  0.500760
   57.5800  0.500260
   57.7200  0.499750
   57.8600  0.499241
   58.0000  0.498732
   58.1400  0.498223
   58.2800  0.497715
   58.4200  0.497204
   58.5600  0.496660
   58.7000  0.496115
   58.8400  0.495571
   58.9800  0.495027
   59.1200  0.494483
   59.2600  0.493938
   59.4000  0.493381
   59.5400  0.492796
   59.6800  0.492210
   59.8200  0.491624
   59.9600  0.491038
   60.1000  0.490451
   60.2400  0.489865
   60.3800  0.489274
   60.5200  0.488678
   60.6600  0.488081
   60.8000  0.487485
   60.9400  0.486887
   61.0800  0.486290
   61.2200  0.485692
   61.3600  0.485089
   61.5000  0.484480
   61.6400  0.483871
   61.7800  0.483261
   61.9200  0.482651
   62.0600  0.482041
   62.2000  0.481430
   62.3400  0.480814
   62.4800  0.480191
   62.6200  0.479567
   62.7600  0.478943
   62.9000  0.478318
   63.0400  0.477692
   63.1800  0.477066
   63.3200  0.476438
   63.4600  0.475802
   63.6000  0.475166
   63.7400  0.474528
   63.8800  0.473891
   64.0200  0.473252
   64.1600  0.472613
   64.3000  0.471973
   64.4400  0.471339
   64.5800  0.470706
   64.7200  0.470071
   64.8600  0.469436
   65.0000  0.468800
   65.1400  0.468164
   65.2800  0.467526
   65.4200  0.466890
   65.5600  0.466256
   65.7000  0.465622
   65.8400  0.464986
   65.9800  0.464350
   66.1200  0.463714
   66.2600  0.463076
   66.4000  0.462438
   66.5400  0.461774
   66.6800  0.461108
   66.8200  0.460440
   66.9600  0.459772
   67.1000  0.459103
   67.2400  0.458433
   67.3800  0.457762
   67.5200  0.457086
   67.6600  0.456396
   67.8000  0.455705
   67.9400  0.455013
   68.0800  0.454321
   68.2200  0.453627
   68.3600  0.452933
   68.5000  0.452237
   68.6400  0.451537
   68.7800  0.450831
   68.9200  0.450124
   69.0600  0.449416
   69.2000  0.448707
   69.3400  0.447997
   69.4800  0.447286
   69.6200  0.446574
   69.7600  0.445873
   69.9000  0.445181
   70.0400  0.444488
   70.1800  0.443794
   70.3200  0.443099
   70.4600  0.442402
   70.6000  0.441705
   70.7400  0.441007
   70.8800  0.440299
   71.0200  0.439579
   71.1600  0.438859
   71.3000  0.438137
   71.4400  0.437414
   71.5800  0.436690
   71.7200  0.435965
   71.8600  0.435238
   72.0000  0.434496
   72.1400  0.433720
   72.2800  0.432942
   72.4200  0.432163
   72.5600  0.431383
   72.7000  0.430601
   72.8400  0.429818
   72.9800  0.429033
   73.1200  0.428246
   73.2600  0.427435
   73.4000  0.426621
   73.5400  0.425806
   73.6800  0.424990
   73.8200  0.424171
   73.9600  0.423351
   74.1000  0.422529
   74.2400  0.421706
   74.3800  0.420887
   74.5200  0.420072
   74.6600  0.419255
   74.8000  0.418437
   74.9400  0.417616
   75.0800  0.416793
   75.2200  0.415968
   75.3600  0.415141
   75.5000  0.414312
   75.6400  0.413426
   75.7800  0.412535
   75.9200  0.411642
   76.0600  0.410746
   76.2000  0.409847
   76.3400  0.408946
   76.4800  0.408042
   76.6200  0.407136
   76.7600  0.406208
   76.9000  0.405208
   77.0400  0.404207
   77.1800  0.403202
   77.3200  0.402195
   77.4600  0.401184
   77.6000  0.400171
   77.7400  0.399155
   77.8800  0.398136
   78.0200  0.397089
   78.1600  0.395994
   78.3000  0.394895
   78.4400  0.393794
   78.5800  0.392689
   78.7200  0.391581
   78.8600  0.390471
   79.0000  0.389357
   79.1400  0.388240
   79.2800  0.387075
   79.4200  0.385825
   79.5600  0.384573
   79.7000  0.383318
   79.8400  0.382060
   79.9800  0.380800
   80.1200  0.379537
   80.2600  0.378271
   80.4000  0.377002
   80.5400  0.375728
   80.6800  0.374440
   80.8200  0.373148
   80.9600  0.371854
   81.1000  0.370557
   81.2400  0.369258
   81.3800  0.367955
   81.5200  0.366650
   81.6600  0.365342
   81.8000  0.364031
   81.9400  0.362676
   82.0800  0.361313
   82.2200  0.359947
   82.3600  0.358578
   82.5000  0.357206
   82.6400  0.355832
   82.7800  0.354455
   82.9200  0.353074
   83.0600  0.351692
   83.2000  0.350266
   83.3400  0.348789
   83.4800  0.347308
   83.6200  0.345825
   83.7600  0.344339
   83.9000  0.342850
   84.0400  0.341359
   84.1800  0.339864
   84.3200  0.338367
   84.4600  0.336867
   84.6000  0.335286
   84.7400  0.333687
   84.8800  0.332085
   85.0200  0.330482
   85.1600  0.328876
   85.3000  0.327267
   85.4400  0.325656
   85.5800  0.324043
   85.7200  0.322428
   85.8600  0.320807
   86.0000  0.319142
   86.1400  0.317475
   86.2800  0.315805
   86.4200  0.314134
   86.5600  0.312461
   86.7000  0.310786
   86.8400  0.309109
   86.9800  0.307430
   87.1200  0.305750
   87.2600  0.304054
   87.4000  0.302280
   87.5400  0.300506
   87.6800  0.298730
   87.8200  0.296952
   87.9600  0.295174
   88.1000  0.293394
   88.2400  0.291614
   88.3800  0.289833
   88.5200  0.288051
   88.6600  0.286258
   88.8000  0.284362
   88.9400  0.282466
   89.0800  0.280570
   89.2200  0.278673
   89.3600  0.276777
   89.5000  0.274881
   89.6400  0.272985
   89.7800  0.271090
   89.9200  0.269195
   90.0600  0.267302
   90.2000  0.265282
   90.3400  0.263240
   90.4800  0.261199
   90.6200  0.259161
   90.7600  0.257125
   90.9000  0.255091
   91.0400  0.253060
   91.1800  0.251032
   91.3200  0.249007
   91.4600  0.246985
   91.6000  0.244885
   91.7400  0.242683
   91.8800  0.240486
   92.0200  0.238295
   92.1600  0.236109
   92.3000  0.233930
   92.4400  0.231756
   92.5800  0.229588
   92.7200  0.227427
   92.8600  0.225274
   93.0000  0.223127
   93.1400  0.220776
   93.2800  0.218400
   93.4200  0.216034
   93.5600  0.213679
   93.7000  0.211335
   93.8400  0.209002
   93.9800  0.206681
   94.1200  0.204372
   94.2600  0.202076
   94.4000  0.199792
   94.5400  0.197477
   94.6800  0.194835
   94.8200  0.192212
   94.9600  0.189609
   95.1000  0.187026
   95.2400  0.184464
   95.3800  0.181922
   95.5200  0.179401
   95.6600  0.176902
   95.8000  0.174425
   95.9400  0.171970
   96.0800  0.169403
   96.2200  0.166310
   96.3600  0.163255
   96.5000  0.160240
   96.6400  0.157263
   96.7800  0.154328
   96.9200  0.151433
   97.0600  0.148578
   97.2000  0.145765
   97.3400  0.142993
   97.4800  0.140263
   97.6200  0.137394
   97.7600  0.132906
   97.9000  0.128537
   98.0400  0.124286
   98.1800  0.120154
   98.3200  0.116139
   98.4600  0.112239
   98.6000  0.108454
   98.7400  0.104783
   98.8800  0.101223
   99.0200  9.777355E-02
   99.1600  9.443163E-02
   99.3000  8.823946E-02
   99.4400  8.181474E-02
   99.5800  7.384622E-02
   99.7200  6.255391E-02
   99.8600  6.021619E-02
   100.000  6.390322E-02